Dypingite optical constants from Roush, J. 
Geophys. Res., 101, 2215-2225, 1996.
  wavelength  calc. ref.  real index  imag. index
 5.0004E+00  1.7770E-02  1.3059E+00   3.8490E-03
 5.0053E+00  1.7741E-02  1.3056E+00   3.8730E-03
 5.0101E+00  1.7713E-02  1.3054E+00   3.8973E-03
 5.0150E+00  1.7683E-02  1.3051E+00   3.9219E-03
 5.0198E+00  1.7654E-02  1.3048E+00   3.9467E-03
 5.0247E+00  1.7625E-02  1.3045E+00   3.9717E-03
 5.0296E+00  1.7595E-02  1.3042E+00   3.9970E-03
 5.0344E+00  1.7566E-02  1.3039E+00   4.0224E-03
 5.0393E+00  1.7536E-02  1.3036E+00   4.0482E-03
 5.0442E+00  1.7506E-02  1.3033E+00   4.0742E-03
 5.0492E+00  1.7475E-02  1.3030E+00   4.1006E-03
 5.0541E+00  1.7445E-02  1.3027E+00   4.1272E-03
 5.0590E+00  1.7414E-02  1.3024E+00   4.1540E-03
 5.0639E+00  1.7383E-02  1.3021E+00   4.1810E-03
 5.0689E+00  1.7352E-02  1.3018E+00   4.2085E-03
 5.0739E+00  1.7321E-02  1.3014E+00   4.2362E-03
 5.0788E+00  1.7290E-02  1.3011E+00   4.2642E-03
 5.0838E+00  1.7258E-02  1.3008E+00   4.2925E-03
 5.0888E+00  1.7226E-02  1.3005E+00   4.3210E-03
 5.0938E+00  1.7194E-02  1.3002E+00   4.3499E-03
 5.0988E+00  1.7162E-02  1.2998E+00   4.3790E-03
 5.1038E+00  1.7130E-02  1.2995E+00   4.4085E-03
 5.1088E+00  1.7097E-02  1.2992E+00   4.4383E-03
 5.1139E+00  1.7064E-02  1.2988E+00   4.4684E-03
 5.1189E+00  1.7031E-02  1.2985E+00   4.4989E-03
 5.1240E+00  1.6998E-02  1.2982E+00   4.5297E-03
 5.1290E+00  1.6965E-02  1.2978E+00   4.5607E-03
 5.1341E+00  1.6931E-02  1.2975E+00   4.5922E-03
 5.1392E+00  1.6897E-02  1.2972E+00   4.6240E-03
 5.1443E+00  1.6863E-02  1.2968E+00   4.6561E-03
 5.1494E+00  1.6829E-02  1.2965E+00   4.6887E-03
 5.1546E+00  1.6795E-02  1.2961E+00   4.7216E-03
 5.1597E+00  1.6760E-02  1.2958E+00   4.7548E-03
 5.1648E+00  1.6725E-02  1.2954E+00   4.7883E-03
 5.1700E+00  1.6690E-02  1.2950E+00   4.8223E-03
 5.1751E+00  1.6655E-02  1.2947E+00   4.8567E-03
 5.1803E+00  1.6619E-02  1.2943E+00   4.8915E-03
 5.1855E+00  1.6583E-02  1.2940E+00   4.9267E-03
 5.1907E+00  1.6547E-02  1.2936E+00   4.9623E-03
 5.1959E+00  1.6511E-02  1.2932E+00   4.9981E-03
 5.2011E+00  1.6474E-02  1.2928E+00   5.0345E-03
 5.2063E+00  1.6437E-02  1.2925E+00   5.0713E-03
 5.2115E+00  1.6400E-02  1.2921E+00   5.1086E-03
 5.2168E+00  1.6363E-02  1.2917E+00   5.1463E-03
 5.2220E+00  1.6325E-02  1.2913E+00   5.1845E-03
 5.2273E+00  1.6287E-02  1.2909E+00   5.2231E-03
 5.2326E+00  1.6249E-02  1.2905E+00   5.2620E-03
 5.2379E+00  1.6211E-02  1.2901E+00   5.3015E-03
 5.2432E+00  1.6172E-02  1.2897E+00   5.3415E-03
 5.2485E+00  1.6133E-02  1.2893E+00   5.3821E-03
 5.2538E+00  1.6094E-02  1.2889E+00   5.4231E-03
 5.2591E+00  1.6055E-02  1.2885E+00   5.4646E-03
 5.2645E+00  1.6015E-02  1.2881E+00   5.5066E-03
 5.2698E+00  1.5975E-02  1.2877E+00   5.5489E-03
 5.2752E+00  1.5935E-02  1.2873E+00   5.5920E-03
 5.2805E+00  1.5894E-02  1.2869E+00   5.6356E-03
 5.2859E+00  1.5854E-02  1.2864E+00   5.6797E-03
 5.2913E+00  1.5812E-02  1.2860E+00   5.7244E-03
 5.2967E+00  1.5771E-02  1.2856E+00   5.7697E-03
 5.3021E+00  1.5729E-02  1.2851E+00   5.8153E-03
 5.3075E+00  1.5687E-02  1.2847E+00   5.8618E-03
 5.3130E+00  1.5645E-02  1.2843E+00   5.9088E-03
 5.3184E+00  1.5602E-02  1.2838E+00   5.9565E-03
 5.3239E+00  1.5559E-02  1.2834E+00   6.0047E-03
 5.3294E+00  1.5516E-02  1.2829E+00   6.0536E-03
 5.3349E+00  1.5472E-02  1.2825E+00   6.1032E-03
 5.3403E+00  1.5429E-02  1.2820E+00   6.1531E-03
 5.3459E+00  1.5384E-02  1.2815E+00   6.2040E-03
 5.3514E+00  1.5340E-02  1.2811E+00   6.2556E-03
 5.3569E+00  1.5295E-02  1.2806E+00   6.3078E-03
 5.3624E+00  1.5250E-02  1.2801E+00   6.3608E-03
 5.3680E+00  1.5204E-02  1.2796E+00   6.4145E-03
 5.3735E+00  1.5158E-02  1.2792E+00   6.4686E-03
 5.3791E+00  1.5112E-02  1.2787E+00   6.5238E-03
 5.3847E+00  1.5065E-02  1.2782E+00   6.5797E-03
 5.3903E+00  1.5018E-02  1.2777E+00   6.6364E-03
 5.3959E+00  1.4971E-02  1.2772E+00   6.6939E-03
 5.4016E+00  1.4923E-02  1.2767E+00   6.7523E-03
 5.4072E+00  1.4875E-02  1.2762E+00   6.8114E-03
 5.4128E+00  1.4827E-02  1.2756E+00   6.8711E-03
 5.4185E+00  1.4778E-02  1.2751E+00   6.9319E-03
 5.4241E+00  1.4729E-02  1.2746E+00   6.9937E-03
 5.4298E+00  1.4679E-02  1.2741E+00   7.0563E-03
 5.4355E+00  1.4629E-02  1.2735E+00   7.1199E-03
 5.4412E+00  1.4578E-02  1.2730E+00   7.1843E-03
 5.4469E+00  1.4528E-02  1.2724E+00   7.2494E-03
 5.4527E+00  1.4476E-02  1.2719E+00   7.3158E-03
 5.4584E+00  1.4425E-02  1.2713E+00   7.3832E-03
 5.4642E+00  1.4373E-02  1.2708E+00   7.4517E-03
 5.4699E+00  1.4320E-02  1.2702E+00   7.5211E-03
 5.4757E+00  1.4267E-02  1.2696E+00   7.5917E-03
 5.4815E+00  1.4214E-02  1.2691E+00   7.6633E-03
 5.4873E+00  1.4160E-02  1.2685E+00   7.7356E-03
 5.4931E+00  1.4106E-02  1.2679E+00   7.8095E-03
 5.4989E+00  1.4051E-02  1.2673E+00   7.8845E-03
 5.5048E+00  1.3996E-02  1.2667E+00   7.9606E-03
 5.5106E+00  1.3940E-02  1.2661E+00   8.0380E-03
 5.5165E+00  1.3884E-02  1.2655E+00   8.1167E-03
 5.5223E+00  1.3827E-02  1.2649E+00   8.1962E-03
 5.5282E+00  1.3770E-02  1.2642E+00   8.2774E-03
 5.5341E+00  1.3712E-02  1.2636E+00   8.3599E-03
 5.5400E+00  1.3654E-02  1.2630E+00   8.4438E-03
 5.5460E+00  1.3595E-02  1.2623E+00   8.5290E-03
 5.5519E+00  1.3536E-02  1.2617E+00   8.6157E-03
 5.5579E+00  1.3476E-02  1.2610E+00   8.7039E-03
 5.5638E+00  1.3416E-02  1.2603E+00   8.7930E-03
 5.5698E+00  1.3356E-02  1.2597E+00   8.8842E-03
 5.5758E+00  1.3294E-02  1.2590E+00   8.9769E-03
 5.5818E+00  1.3232E-02  1.2583E+00   9.0713E-03
 5.5878E+00  1.3170E-02  1.2576E+00   9.1672E-03
 5.5938E+00  1.3107E-02  1.2569E+00   9.2649E-03
 5.5999E+00  1.3044E-02  1.2562E+00   9.3637E-03
 5.6059E+00  1.2979E-02  1.2555E+00   9.4649E-03
 5.6120E+00  1.2914E-02  1.2547E+00   9.5678E-03
 5.6181E+00  1.2849E-02  1.2540E+00   9.6727E-03
 5.6242E+00  1.2783E-02  1.2533E+00   9.7794E-03
 5.6303E+00  1.2716E-02  1.2525E+00   9.8881E-03
 5.6364E+00  1.2649E-02  1.2517E+00   9.9987E-03
 5.6425E+00  1.2582E-02  1.2510E+00   1.0111E-02
 5.6487E+00  1.2513E-02  1.2502E+00   1.0226E-02
 5.6548E+00  1.2444E-02  1.2494E+00   1.0343E-02
 5.6610E+00  1.2374E-02  1.2486E+00   1.0462E-02
 5.6672E+00  1.2303E-02  1.2478E+00   1.0584E-02
 5.6734E+00  1.2232E-02  1.2470E+00   1.0708E-02
 5.6796E+00  1.2160E-02  1.2462E+00   1.0833E-02
 5.6858E+00  1.2088E-02  1.2453E+00   1.0962E-02
 5.6921E+00  1.2014E-02  1.2445E+00   1.1094E-02
 5.6983E+00  1.1940E-02  1.2436E+00   1.1228E-02
 5.7046E+00  1.1865E-02  1.2428E+00   1.1364E-02
 5.7109E+00  1.1790E-02  1.2419E+00   1.1504E-02
 5.7172E+00  1.1713E-02  1.2410E+00   1.1646E-02
 5.7235E+00  1.1636E-02  1.2401E+00   1.1791E-02
 5.7298E+00  1.1558E-02  1.2392E+00   1.1939E-02
 5.7361E+00  1.1480E-02  1.2382E+00   1.2091E-02
 5.7425E+00  1.1400E-02  1.2373E+00   1.2246E-02
 5.7489E+00  1.1320E-02  1.2363E+00   1.2404E-02
 5.7553E+00  1.1238E-02  1.2354E+00   1.2566E-02
 5.7616E+00  1.1157E-02  1.2344E+00   1.2730E-02
 5.7680E+00  1.1074E-02  1.2334E+00   1.2899E-02
 5.7745E+00  1.0990E-02  1.2324E+00   1.3071E-02
 5.7809E+00  1.0905E-02  1.2314E+00   1.3248E-02
 5.7874E+00  1.0819E-02  1.2304E+00   1.3428E-02
 5.7938E+00  1.0733E-02  1.2293E+00   1.3613E-02
 5.8003E+00  1.0645E-02  1.2282E+00   1.3802E-02
 5.8068E+00  1.0557E-02  1.2272E+00   1.3994E-02
 5.8133E+00  1.0468E-02  1.2261E+00   1.4192E-02
 5.8198E+00  1.0377E-02  1.2250E+00   1.4395E-02
 5.8264E+00  1.0286E-02  1.2238E+00   1.4602E-02
 5.8329E+00  1.0193E-02  1.2227E+00   1.4815E-02
 5.8395E+00  1.0100E-02  1.2215E+00   1.5033E-02
 5.8461E+00  1.0006E-02  1.2204E+00   1.5255E-02
 5.8527E+00  9.9103E-03  1.2192E+00   1.5484E-02
 5.8593E+00  9.8136E-03  1.2179E+00   1.5719E-02
 5.8659E+00  9.7159E-03  1.2167E+00   1.5960E-02
 5.8726E+00  9.6170E-03  1.2155E+00   1.6208E-02
 5.8792E+00  9.5170E-03  1.2142E+00   1.6461E-02
 5.8859E+00  9.4159E-03  1.2129E+00   1.6722E-02
 5.8926E+00  9.3141E-03  1.2116E+00   1.6988E-02
 5.8993E+00  9.2106E-03  1.2102E+00   1.7263E-02
 5.9060E+00  9.1060E-03  1.2089E+00   1.7546E-02
 5.9128E+00  9.0001E-03  1.2075E+00   1.7836E-02
 5.9195E+00  8.8929E-03  1.2061E+00   1.8135E-02
 5.9263E+00  8.7846E-03  1.2046E+00   1.8443E-02
 5.9330E+00  8.6755E-03  1.2032E+00   1.8757E-02
 5.9398E+00  8.5646E-03  1.2017E+00   1.9083E-02
 5.9466E+00  8.4524E-03  1.2002E+00   1.9418E-02
 5.9535E+00  8.3389E-03  1.1987E+00   1.9764E-02
 5.9603E+00  8.2241E-03  1.1971E+00   2.0120E-02
 5.9672E+00  8.1079E-03  1.1955E+00   2.0487E-02
 5.9741E+00  7.9904E-03  1.1939E+00   2.0866E-02
 5.9809E+00  7.8721E-03  1.1922E+00   2.1254E-02
 5.9878E+00  7.7518E-03  1.1905E+00   2.1658E-02
 5.9948E+00  7.6302E-03  1.1888E+00   2.2074E-02
 6.0017E+00  7.5071E-03  1.1870E+00   2.2505E-02
 6.0087E+00  7.3826E-03  1.1853E+00   2.2950E-02
 6.0157E+00  7.2567E-03  1.1834E+00   2.3411E-02
 6.0226E+00  7.1301E-03  1.1816E+00   2.3885E-02
 6.0296E+00  7.0013E-03  1.1797E+00   2.4378E-02
 6.0366E+00  6.8712E-03  1.1777E+00   2.4889E-02
 6.0437E+00  6.7396E-03  1.1757E+00   2.5419E-02
 6.0507E+00  6.6066E-03  1.1737E+00   2.5968E-02
 6.0578E+00  6.4722E-03  1.1716E+00   2.6538E-02
 6.0649E+00  6.3364E-03  1.1695E+00   2.7130E-02
 6.0720E+00  6.1999E-03  1.1673E+00   2.7742E-02
 6.0791E+00  6.0614E-03  1.1651E+00   2.8381E-02
 6.0862E+00  5.9216E-03  1.1629E+00   2.9046E-02
 6.0934E+00  5.7805E-03  1.1605E+00   2.9739E-02
 6.1006E+00  5.6381E-03  1.1582E+00   3.0461E-02
 6.1078E+00  5.4946E-03  1.1557E+00   3.1213E-02
 6.1150E+00  5.3500E-03  1.1532E+00   3.1998E-02
 6.1222E+00  5.2051E-03  1.1507E+00   3.2814E-02
 6.1294E+00  5.0586E-03  1.1480E+00   3.3671E-02
 6.1367E+00  4.9112E-03  1.1454E+00   3.4568E-02
 6.1439E+00  4.7631E-03  1.1426E+00   3.5506E-02
 6.1512E+00  4.6145E-03  1.1398E+00   3.6490E-02
 6.1585E+00  4.4656E-03  1.1368E+00   3.7523E-02
 6.1658E+00  4.3172E-03  1.1339E+00   3.8601E-02
 6.1732E+00  4.1682E-03  1.1308E+00   3.9741E-02
 6.1805E+00  4.0195E-03  1.1276E+00   4.0940E-02
 6.1879E+00  3.8716E-03  1.1244E+00   4.2204E-02
 6.1953E+00  3.7246E-03  1.1210E+00   4.3538E-02
 6.2027E+00  3.5792E-03  1.1176E+00   4.4946E-02
 6.2102E+00  3.4357E-03  1.1140E+00   4.6437E-02
 6.2176E+00  3.2955E-03  1.1104E+00   4.8007E-02
 6.2251E+00  3.1577E-03  1.1066E+00   4.9681E-02
 6.2325E+00  3.0240E-03  1.1027E+00   5.1459E-02
 6.2401E+00  2.8951E-03  1.0987E+00   5.3352E-02
 6.2476E+00  2.7722E-03  1.0945E+00   5.5370E-02
 6.2551E+00  2.6564E-03  1.0902E+00   5.7524E-02
 6.2626E+00  2.5498E-03  1.0858E+00   5.9816E-02
 6.2702E+00  2.4528E-03  1.0812E+00   6.2285E-02
 6.2778E+00  2.3680E-03  1.0765E+00   6.4937E-02
 6.2854E+00  2.2977E-03  1.0716E+00   6.7790E-02
 6.2931E+00  2.2445E-03  1.0666E+00   7.0867E-02
 6.3007E+00  2.2117E-03  1.0614E+00   7.4194E-02
 6.3084E+00  2.2030E-03  1.0560E+00   7.7798E-02
 6.3160E+00  2.2225E-03  1.0504E+00   8.1689E-02
 6.3238E+00  2.2757E-03  1.0447E+00   8.5947E-02
 6.3315E+00  2.3686E-03  1.0388E+00   9.0593E-02
 6.3392E+00  2.5085E-03  1.0327E+00   9.5676E-02
 6.3470E+00  2.7037E-03  1.0265E+00   1.0125E-01
 6.3548E+00  2.9642E-03  1.0201E+00   1.0737E-01
 6.3625E+00  3.2997E-03  1.0137E+00   1.1408E-01
 6.3704E+00  3.7268E-03  1.0072E+00   1.2151E-01
 6.3782E+00  4.2591E-03  1.0006E+00   1.2972E-01
 6.3861E+00  4.9133E-03  9.9423E-01   1.3880E-01
 6.3939E+00  5.7075E-03  9.8802E-01   1.4882E-01
 6.4018E+00  6.6597E-03  9.8217E-01   1.5987E-01
 6.4098E+00  7.7867E-03  9.7688E-01   1.7200E-01
 6.4177E+00  9.0943E-03  9.7240E-01   1.8519E-01
 6.4256E+00  1.0600E-02  9.6899E-01   1.9954E-01
 6.4336E+00  1.2290E-02  9.6699E-01   2.1488E-01
 6.4416E+00  1.4136E-02  9.6676E-01   2.3098E-01
 6.4496E+00  1.6088E-02  9.6863E-01   2.4748E-01
 6.4577E+00  1.8069E-02  9.7285E-01   2.6387E-01
 6.4657E+00  1.9972E-02  9.7946E-01   2.7939E-01
 6.4737E+00  2.1705E-02  9.8838E-01   2.9348E-01
 6.4818E+00  2.3157E-02  9.9912E-01   3.0531E-01
 6.4900E+00  2.4250E-02  1.0110E+00   3.1435E-01
 6.4981E+00  2.4951E-02  1.0230E+00   3.2030E-01
 6.5063E+00  2.5275E-02  1.0341E+00   3.2328E-01
 6.5144E+00  2.5287E-02  1.0434E+00   3.2376E-01
 6.5226E+00  2.5082E-02  1.0503E+00   3.2251E-01
 6.5308E+00  2.4773E-02  1.0544E+00   3.2040E-01
 6.5391E+00  2.4473E-02  1.0557E+00   3.1833E-01
 6.5473E+00  2.4291E-02  1.0544E+00   3.1709E-01
 6.5556E+00  2.4320E-02  1.0509E+00   3.1732E-01
 6.5639E+00  2.4643E-02  1.0457E+00   3.1948E-01
 6.5722E+00  2.5325E-02  1.0393E+00   3.2387E-01
 6.5805E+00  2.6434E-02  1.0321E+00   3.3077E-01
 6.5889E+00  2.8019E-02  1.0248E+00   3.4028E-01
 6.5973E+00  3.0124E-02  1.0177E+00   3.5246E-01
 6.6057E+00  3.2780E-02  1.0116E+00   3.6732E-01
 6.6142E+00  3.5998E-02  1.0067E+00   3.8479E-01
 6.6226E+00  3.9769E-02  1.0038E+00   4.0472E-01
 6.6310E+00  4.4028E-02  1.0034E+00   4.2675E-01
 6.6395E+00  4.8738E-02  1.0060E+00   4.5074E-01
 6.6481E+00  5.3760E-02  1.0121E+00   4.7610E-01
 6.6566E+00  5.8935E-02  1.0222E+00   5.0217E-01
 6.6652E+00  6.4075E-02  1.0366E+00   5.2817E-01
 6.6737E+00  6.8977E-02  1.0556E+00   5.5319E-01
 6.6823E+00  7.3414E-02  1.0790E+00   5.7611E-01
 6.6909E+00  7.7251E-02  1.1066E+00   5.9611E-01
 6.6996E+00  8.0313E-02  1.1379E+00   6.1204E-01
 6.7083E+00  8.2495E-02  1.1720E+00   6.2297E-01
 6.7170E+00  8.3750E-02  1.2077E+00   6.2820E-01
 6.7257E+00  8.4082E-02  1.2436E+00   6.2738E-01
 6.7344E+00  8.3548E-02  1.2784E+00   6.2055E-01
 6.7431E+00  8.2252E-02  1.3103E+00   6.0825E-01
 6.7519E+00  8.0308E-02  1.3386E+00   5.9122E-01
 6.7607E+00  7.7860E-02  1.3621E+00   5.7065E-01
 6.7696E+00  7.5051E-02  1.3806E+00   5.4783E-01
 6.7784E+00  7.2014E-02  1.3937E+00   5.2404E-01
 6.7873E+00  6.8871E-02  1.4018E+00   5.0041E-01
 6.7962E+00  6.5738E-02  1.4053E+00   4.7802E-01
 6.8051E+00  6.2668E-02  1.4047E+00   4.5738E-01
 6.8140E+00  5.9748E-02  1.4008E+00   4.3915E-01
 6.8230E+00  5.7035E-02  1.3941E+00   4.2370E-01
 6.8320E+00  5.4583E-02  1.3851E+00   4.1128E-01
 6.8410E+00  5.2440E-02  1.3746E+00   4.0206E-01
 6.8501E+00  5.0656E-02  1.3628E+00   3.9616E-01
 6.8591E+00  4.9291E-02  1.3505E+00   3.9367E-01
 6.8682E+00  4.8394E-02  1.3379E+00   3.9465E-01
 6.8773E+00  4.8043E-02  1.3256E+00   3.9919E-01
 6.8864E+00  4.8317E-02  1.3141E+00   4.0738E-01
 6.8956E+00  4.9301E-02  1.3040E+00   4.1924E-01
 6.9048E+00  5.1078E-02  1.2960E+00   4.3477E-01
 6.9140E+00  5.3699E-02  1.2910E+00   4.5372E-01
 6.9232E+00  5.7226E-02  1.2897E+00   4.7598E-01
 6.9325E+00  6.1622E-02  1.2933E+00   5.0089E-01
 6.9417E+00  6.6782E-02  1.3027E+00   5.2754E-01
 6.9511E+00  7.2504E-02  1.3186E+00   5.5466E-01
 6.9604E+00  7.8495E-02  1.3417E+00   5.8058E-01
 6.9698E+00  8.4390E-02  1.3720E+00   6.0331E-01
 6.9791E+00  8.9779E-02  1.4087E+00   6.2067E-01
 6.9885E+00  9.4371E-02  1.4506E+00   6.3086E-01
 6.9980E+00  9.7871E-02  1.4957E+00   6.3225E-01
 7.0074E+00  1.0014E-01  1.5411E+00   6.2415E-01
 7.0169E+00  1.0115E-01  1.5842E+00   6.0683E-01
 7.0264E+00  1.0101E-01  1.6225E+00   5.8158E-01
 7.0359E+00  9.9900E-02  1.6540E+00   5.5056E-01
 7.0455E+00  9.8013E-02  1.6783E+00   5.1575E-01
 7.0551E+00  9.5572E-02  1.6952E+00   4.7951E-01
 7.0647E+00  9.2769E-02  1.7053E+00   4.4367E-01
 7.0743E+00  8.9769E-02  1.7096E+00   4.0955E-01
 7.0840E+00  8.6693E-02  1.7093E+00   3.7799E-01
 7.0937E+00  8.3635E-02  1.7053E+00   3.4943E-01
 7.1034E+00  8.0674E-02  1.6988E+00   3.2414E-01
 7.1131E+00  7.7822E-02  1.6904E+00   3.0181E-01
 7.1229E+00  7.5124E-02  1.6809E+00   2.8242E-01
 7.1327E+00  7.2596E-02  1.6707E+00   2.6576E-01
 7.1426E+00  7.0253E-02  1.6602E+00   2.5161E-01
 7.1524E+00  6.8101E-02  1.6498E+00   2.3971E-01
 7.1622E+00  6.6156E-02  1.6398E+00   2.2989E-01
 7.1722E+00  6.4404E-02  1.6303E+00   2.2180E-01
 7.1821E+00  6.2859E-02  1.6215E+00   2.1527E-01
 7.1921E+00  6.1522E-02  1.6137E+00   2.1003E-01
 7.2021E+00  6.0393E-02  1.6070E+00   2.0580E-01
 7.2121E+00  5.9463E-02  1.6014E+00   2.0226E-01
 7.2221E+00  5.8712E-02  1.5971E+00   1.9909E-01
 7.2322E+00  5.8116E-02  1.5939E+00   1.9594E-01
 7.2423E+00  5.7629E-02  1.5916E+00   1.9246E-01
 7.2524E+00  5.7207E-02  1.5900E+00   1.8842E-01
 7.2626E+00  5.6802E-02  1.5888E+00   1.8368E-01
 7.2728E+00  5.6372E-02  1.5877E+00   1.7821E-01
 7.2830E+00  5.5885E-02  1.5863E+00   1.7212E-01
 7.2932E+00  5.5329E-02  1.5844E+00   1.6563E-01
 7.3035E+00  5.4693E-02  1.5820E+00   1.5888E-01
 7.3138E+00  5.3987E-02  1.5789E+00   1.5212E-01
 7.3241E+00  5.3223E-02  1.5752E+00   1.4554E-01
 7.3345E+00  5.2417E-02  1.5711E+00   1.3927E-01
 7.3449E+00  5.1585E-02  1.5665E+00   1.3341E-01
 7.3553E+00  5.0741E-02  1.5616E+00   1.2800E-01
 7.3657E+00  4.9900E-02  1.5566E+00   1.2309E-01
 7.3762E+00  4.9065E-02  1.5515E+00   1.1862E-01
 7.3867E+00  4.8245E-02  1.5463E+00   1.1460E-01
 7.3973E+00  4.7445E-02  1.5411E+00   1.1099E-01
 7.4078E+00  4.6671E-02  1.5359E+00   1.0778E-01
 7.4185E+00  4.5922E-02  1.5309E+00   1.0491E-01
 7.4291E+00  4.5201E-02  1.5259E+00   1.0238E-01
 7.4397E+00  4.4512E-02  1.5211E+00   1.0014E-01
 7.4504E+00  4.3847E-02  1.5164E+00   9.8154E-02
 7.4611E+00  4.3210E-02  1.5118E+00   9.6406E-02
 7.4719E+00  4.2600E-02  1.5074E+00   9.4871E-02
 7.4827E+00  4.2017E-02  1.5032E+00   9.3529E-02
 7.4935E+00  4.1460E-02  1.4990E+00   9.2359E-02
 7.5043E+00  4.0930E-02  1.4951E+00   9.1349E-02
 7.5152E+00  4.0421E-02  1.4913E+00   9.0474E-02
 7.5261E+00  3.9936E-02  1.4876E+00   8.9725E-02
 7.5370E+00  3.9473E-02  1.4840E+00   8.9088E-02
 7.5480E+00  3.9031E-02  1.4806E+00   8.8553E-02
 7.5590E+00  3.8610E-02  1.4774E+00   8.8107E-02
 7.5701E+00  3.8209E-02  1.4742E+00   8.7742E-02
 7.5811E+00  3.7828E-02  1.4712E+00   8.7450E-02
 7.5922E+00  3.7464E-02  1.4683E+00   8.7219E-02
 7.6033E+00  3.7117E-02  1.4656E+00   8.7042E-02
 7.6145E+00  3.6786E-02  1.4629E+00   8.6913E-02
 7.6257E+00  3.6472E-02  1.4604E+00   8.6824E-02
 7.6370E+00  3.6172E-02  1.4580E+00   8.6768E-02
 7.6482E+00  3.5889E-02  1.4557E+00   8.6740E-02
 7.6595E+00  3.5618E-02  1.4534E+00   8.6732E-02
 7.6708E+00  3.5360E-02  1.4513E+00   8.6740E-02
 7.6822E+00  3.5115E-02  1.4493E+00   8.6757E-02
 7.6936E+00  3.4881E-02  1.4474E+00   8.6780E-02
 7.7051E+00  3.4658E-02  1.4455E+00   8.6802E-02
 7.7165E+00  3.4446E-02  1.4438E+00   8.6820E-02
 7.7280E+00  3.4244E-02  1.4421E+00   8.6828E-02
 7.7395E+00  3.4050E-02  1.4405E+00   8.6823E-02
 7.7511E+00  3.3864E-02  1.4390E+00   8.6801E-02
 7.7627E+00  3.3686E-02  1.4375E+00   8.6759E-02
 7.7744E+00  3.3514E-02  1.4361E+00   8.6694E-02
 7.7860E+00  3.3349E-02  1.4347E+00   8.6602E-02
 7.7977E+00  3.3190E-02  1.4334E+00   8.6482E-02
 7.8094E+00  3.3035E-02  1.4322E+00   8.6331E-02
 7.8212E+00  3.2884E-02  1.4309E+00   8.6147E-02
 7.8331E+00  3.2736E-02  1.4297E+00   8.5929E-02
 7.8449E+00  3.2591E-02  1.4286E+00   8.5677E-02
 7.8568E+00  3.2448E-02  1.4275E+00   8.5388E-02
 7.8688E+00  3.2307E-02  1.4263E+00   8.5063E-02
 7.8807E+00  3.2168E-02  1.4253E+00   8.4705E-02
 7.8927E+00  3.2028E-02  1.4242E+00   8.4308E-02
 7.9047E+00  3.1888E-02  1.4231E+00   8.3877E-02
 7.9168E+00  3.1748E-02  1.4220E+00   8.3411E-02
 7.9289E+00  3.1607E-02  1.4209E+00   8.2912E-02
 7.9410E+00  3.1464E-02  1.4199E+00   8.2381E-02
 7.9532E+00  3.1321E-02  1.4188E+00   8.1823E-02
 7.9654E+00  3.1174E-02  1.4177E+00   8.1235E-02
 7.9777E+00  3.1026E-02  1.4165E+00   8.0620E-02
 7.9900E+00  3.0874E-02  1.4154E+00   7.9981E-02
 8.0023E+00  3.0720E-02  1.4142E+00   7.9320E-02
 8.0147E+00  3.0563E-02  1.4130E+00   7.8640E-02
 8.0271E+00  3.0402E-02  1.4118E+00   7.7943E-02
 8.0395E+00  3.0239E-02  1.4106E+00   7.7235E-02
 8.0520E+00  3.0071E-02  1.4093E+00   7.6511E-02
 8.0645E+00  2.9900E-02  1.4080E+00   7.5778E-02
 8.0771E+00  2.9726E-02  1.4067E+00   7.5038E-02
 8.0897E+00  2.9547E-02  1.4053E+00   7.4293E-02
