From Roush 1995, Optical constants of amorphous carbon
in the mid-IR (2.5-25 mm, 4000-400 cm-1), Planet. Space
Sci., 43 (10/11), 1297-1301.

 wavelength  calculated     real      imaginary
  (microns) reflectance     index       index
 2.5002E+00  8.2386E-02  1.7291E+00   2.9850E-01
 2.5014E+00  8.2409E-02  1.7291E+00   2.9884E-01
 2.5026E+00  8.2433E-02  1.7291E+00   2.9918E-01
 2.5038E+00  8.2456E-02  1.7291E+00   2.9953E-01
 2.5051E+00  8.2480E-02  1.7291E+00   2.9987E-01
 2.5063E+00  8.2504E-02  1.7291E+00   3.0022E-01
 2.5075E+00  8.2528E-02  1.7291E+00   3.0057E-01
 2.5087E+00  8.2552E-02  1.7291E+00   3.0091E-01
 2.5099E+00  8.2576E-02  1.7290E+00   3.0126E-01
 2.5111E+00  8.2600E-02  1.7290E+00   3.0161E-01
 2.5123E+00  8.2625E-02  1.7290E+00   3.0196E-01
 2.5136E+00  8.2649E-02  1.7290E+00   3.0231E-01
 2.5148E+00  8.2674E-02  1.7290E+00   3.0266E-01
 2.5160E+00  8.2699E-02  1.7290E+00   3.0301E-01
 2.5172E+00  8.2724E-02  1.7290E+00   3.0336E-01
 2.5184E+00  8.2749E-02  1.7290E+00   3.0371E-01
 2.5197E+00  8.2774E-02  1.7290E+00   3.0406E-01
 2.5209E+00  8.2799E-02  1.7290E+00   3.0441E-01
 2.5221E+00  8.2824E-02  1.7290E+00   3.0477E-01
 2.5234E+00  8.2850E-02  1.7290E+00   3.0512E-01
 2.5246E+00  8.2875E-02  1.7290E+00   3.0548E-01
 2.5258E+00  8.2901E-02  1.7289E+00   3.0583E-01
 2.5270E+00  8.2927E-02  1.7289E+00   3.0619E-01
 2.5283E+00  8.2953E-02  1.7289E+00   3.0655E-01
 2.5295E+00  8.2979E-02  1.7289E+00   3.0690E-01
 2.5307E+00  8.3006E-02  1.7289E+00   3.0726E-01
 2.5320E+00  8.3032E-02  1.7289E+00   3.0762E-01
 2.5332E+00  8.3058E-02  1.7289E+00   3.0797E-01
 2.5344E+00  8.3085E-02  1.7289E+00   3.0833E-01
 2.5357E+00  8.3112E-02  1.7289E+00   3.0870E-01
 2.5369E+00  8.3139E-02  1.7289E+00   3.0906E-01
 2.5382E+00  8.3166E-02  1.7289E+00   3.0942E-01
 2.5394E+00  8.3193E-02  1.7289E+00   3.0978E-01
 2.5406E+00  8.3220E-02  1.7289E+00   3.1014E-01
 2.5419E+00  8.3248E-02  1.7289E+00   3.1051E-01
 2.5431E+00  8.3275E-02  1.7289E+00   3.1087E-01
 2.5444E+00  8.3303E-02  1.7289E+00   3.1124E-01
 2.5456E+00  8.3331E-02  1.7289E+00   3.1160E-01
 2.5469E+00  8.3359E-02  1.7289E+00   3.1197E-01
 2.5481E+00  8.3387E-02  1.7289E+00   3.1233E-01
 2.5494E+00  8.3415E-02  1.7289E+00   3.1270E-01
 2.5507E+00  8.3444E-02  1.7289E+00   3.1307E-01
 2.5519E+00  8.3472E-02  1.7289E+00   3.1344E-01
 2.5532E+00  8.3501E-02  1.7289E+00   3.1381E-01
 2.5544E+00  8.3530E-02  1.7289E+00   3.1418E-01
 2.5557E+00  8.3559E-02  1.7290E+00   3.1455E-01
 2.5569E+00  8.3588E-02  1.7290E+00   3.1492E-01
 2.5582E+00  8.3617E-02  1.7290E+00   3.1529E-01
 2.5595E+00  8.3647E-02  1.7290E+00   3.1566E-01
 2.5607E+00  8.3676E-02  1.7290E+00   3.1604E-01
 2.5620E+00  8.3706E-02  1.7290E+00   3.1641E-01
 2.5633E+00  8.3736E-02  1.7290E+00   3.1679E-01
 2.5645E+00  8.3765E-02  1.7290E+00   3.1716E-01
 2.5658E+00  8.3796E-02  1.7290E+00   3.1753E-01
 2.5671E+00  8.3826E-02  1.7290E+00   3.1791E-01
 2.5683E+00  8.3857E-02  1.7290E+00   3.1829E-01
 2.5696E+00  8.3887E-02  1.7290E+00   3.1867E-01
 2.5709E+00  8.3918E-02  1.7290E+00   3.1905E-01
 2.5722E+00  8.3949E-02  1.7291E+00   3.1943E-01
 2.5734E+00  8.3980E-02  1.7291E+00   3.1980E-01
 2.5747E+00  8.4011E-02  1.7291E+00   3.2018E-01
 2.5760E+00  8.4042E-02  1.7291E+00   3.2057E-01
 2.5773E+00  8.4074E-02  1.7291E+00   3.2095E-01
 2.5786E+00  8.4106E-02  1.7291E+00   3.2133E-01
 2.5798E+00  8.4137E-02  1.7291E+00   3.2172E-01
 2.5811E+00  8.4169E-02  1.7292E+00   3.2210E-01
 2.5824E+00  8.4201E-02  1.7292E+00   3.2248E-01
 2.5837E+00  8.4234E-02  1.7292E+00   3.2287E-01
 2.5850E+00  8.4266E-02  1.7292E+00   3.2325E-01
 2.5863E+00  8.4299E-02  1.7292E+00   3.2364E-01
 2.5876E+00  8.4332E-02  1.7292E+00   3.2403E-01
 2.5889E+00  8.4365E-02  1.7293E+00   3.2442E-01
 2.5901E+00  8.4398E-02  1.7293E+00   3.2480E-01
 2.5914E+00  8.4431E-02  1.7293E+00   3.2519E-01
 2.5927E+00  8.4465E-02  1.7293E+00   3.2559E-01
 2.5940E+00  8.4498E-02  1.7293E+00   3.2597E-01
 2.5953E+00  8.4532E-02  1.7294E+00   3.2637E-01
 2.5966E+00  8.4566E-02  1.7294E+00   3.2676E-01
 2.5979E+00  8.4600E-02  1.7294E+00   3.2715E-01
 2.5992E+00  8.4634E-02  1.7294E+00   3.2754E-01
 2.6005E+00  8.4669E-02  1.7295E+00   3.2794E-01
 2.6018E+00  8.4703E-02  1.7295E+00   3.2833E-01
 2.6031E+00  8.4738E-02  1.7295E+00   3.2873E-01
 2.6045E+00  8.4773E-02  1.7295E+00   3.2913E-01
 2.6058E+00  8.4809E-02  1.7296E+00   3.2952E-01
 2.6071E+00  8.4844E-02  1.7296E+00   3.2992E-01
 2.6084E+00  8.4879E-02  1.7296E+00   3.3032E-01
 2.6097E+00  8.4915E-02  1.7296E+00   3.3072E-01
 2.6110E+00  8.4951E-02  1.7297E+00   3.3112E-01
 2.6123E+00  8.4987E-02  1.7297E+00   3.3152E-01
 2.6136E+00  8.5024E-02  1.7297E+00   3.3192E-01
 2.6150E+00  8.5060E-02  1.7298E+00   3.3232E-01
 2.6163E+00  8.5096E-02  1.7298E+00   3.3272E-01
 2.6176E+00  8.5133E-02  1.7298E+00   3.3313E-01
 2.6189E+00  8.5170E-02  1.7299E+00   3.3353E-01
 2.6202E+00  8.5208E-02  1.7299E+00   3.3394E-01
 2.6216E+00  8.5245E-02  1.7299E+00   3.3434E-01
 2.6229E+00  8.5283E-02  1.7300E+00   3.3475E-01
 2.6242E+00  8.5320E-02  1.7300E+00   3.3515E-01
 2.6256E+00  8.5358E-02  1.7300E+00   3.3556E-01
 2.6269E+00  8.5397E-02  1.7301E+00   3.3597E-01
 2.6282E+00  8.5435E-02  1.7301E+00   3.3638E-01
 2.6296E+00  8.5473E-02  1.7302E+00   3.3679E-01
 2.6309E+00  8.5512E-02  1.7302E+00   3.3720E-01
 2.6322E+00  8.5551E-02  1.7302E+00   3.3761E-01
 2.6336E+00  8.5590E-02  1.7303E+00   3.3802E-01
 2.6349E+00  8.5629E-02  1.7303E+00   3.3843E-01
 2.6362E+00  8.5669E-02  1.7304E+00   3.3884E-01
 2.6376E+00  8.5709E-02  1.7304E+00   3.3926E-01
 2.6389E+00  8.5749E-02  1.7305E+00   3.3967E-01
 2.6403E+00  8.5789E-02  1.7305E+00   3.4009E-01
 2.6416E+00  8.5829E-02  1.7306E+00   3.4050E-01
 2.6429E+00  8.5870E-02  1.7306E+00   3.4092E-01
 2.6443E+00  8.5910E-02  1.7306E+00   3.4134E-01
 2.6456E+00  8.5951E-02  1.7307E+00   3.4175E-01
 2.6470E+00  8.5993E-02  1.7307E+00   3.4217E-01
 2.6484E+00  8.6034E-02  1.7308E+00   3.4259E-01
 2.6497E+00  8.6076E-02  1.7309E+00   3.4301E-01
 2.6511E+00  8.6117E-02  1.7309E+00   3.4343E-01
 2.6524E+00  8.6159E-02  1.7310E+00   3.4385E-01
 2.6538E+00  8.6201E-02  1.7310E+00   3.4427E-01
 2.6551E+00  8.6244E-02  1.7311E+00   3.4469E-01
 2.6565E+00  8.6287E-02  1.7311E+00   3.4512E-01
 2.6579E+00  8.6330E-02  1.7312E+00   3.4554E-01
 2.6592E+00  8.6372E-02  1.7312E+00   3.4596E-01
 2.6606E+00  8.6416E-02  1.7313E+00   3.4639E-01
 2.6620E+00  8.6460E-02  1.7314E+00   3.4682E-01
 2.6633E+00  8.6503E-02  1.7314E+00   3.4724E-01
 2.6647E+00  8.6547E-02  1.7315E+00   3.4767E-01
 2.6661E+00  8.6592E-02  1.7316E+00   3.4810E-01
 2.6674E+00  8.6636E-02  1.7316E+00   3.4853E-01
 2.6688E+00  8.6680E-02  1.7317E+00   3.4895E-01
 2.6702E+00  8.6725E-02  1.7318E+00   3.4938E-01
 2.6715E+00  8.6770E-02  1.7318E+00   3.4981E-01
 2.6729E+00  8.6815E-02  1.7319E+00   3.5024E-01
 2.6743E+00  8.6861E-02  1.7320E+00   3.5067E-01
 2.6757E+00  8.6907E-02  1.7320E+00   3.5111E-01
 2.6771E+00  8.6953E-02  1.7321E+00   3.5153E-01
 2.6784E+00  8.6999E-02  1.7322E+00   3.5197E-01
 2.6798E+00  8.7045E-02  1.7323E+00   3.5240E-01
 2.6812E+00  8.7092E-02  1.7323E+00   3.5284E-01
 2.6826E+00  8.7139E-02  1.7324E+00   3.5327E-01
 2.6840E+00  8.7186E-02  1.7325E+00   3.5371E-01
 2.6854E+00  8.7234E-02  1.7326E+00   3.5414E-01
 2.6868E+00  8.7281E-02  1.7326E+00   3.5458E-01
 2.6882E+00  8.7329E-02  1.7327E+00   3.5501E-01
 2.6896E+00  8.7377E-02  1.7328E+00   3.5545E-01
 2.6910E+00  8.7426E-02  1.7329E+00   3.5589E-01
 2.6924E+00  8.7474E-02  1.7330E+00   3.5633E-01
 2.6938E+00  8.7523E-02  1.7331E+00   3.5677E-01
 2.6951E+00  8.7572E-02  1.7331E+00   3.5721E-01
 2.6965E+00  8.7621E-02  1.7332E+00   3.5764E-01
 2.6980E+00  8.7671E-02  1.7333E+00   3.5809E-01
 2.6994E+00  8.7720E-02  1.7334E+00   3.5853E-01
 2.7008E+00  8.7770E-02  1.7335E+00   3.5897E-01
 2.7022E+00  8.7821E-02  1.7336E+00   3.5941E-01
 2.7036E+00  8.7871E-02  1.7337E+00   3.5985E-01
 2.7050E+00  8.7922E-02  1.7338E+00   3.6029E-01
 2.7064E+00  8.7972E-02  1.7339E+00   3.6074E-01
 2.7078E+00  8.8024E-02  1.7340E+00   3.6118E-01
 2.7092E+00  8.8075E-02  1.7341E+00   3.6162E-01
 2.7106E+00  8.8127E-02  1.7342E+00   3.6207E-01
 2.7121E+00  8.8179E-02  1.7343E+00   3.6252E-01
 2.7135E+00  8.8231E-02  1.7344E+00   3.6296E-01
 2.7149E+00  8.8284E-02  1.7345E+00   3.6341E-01
 2.7163E+00  8.8336E-02  1.7346E+00   3.6385E-01
 2.7178E+00  8.8389E-02  1.7347E+00   3.6430E-01
 2.7192E+00  8.8442E-02  1.7348E+00   3.6475E-01
 2.7206E+00  8.8496E-02  1.7349E+00   3.6519E-01
 2.7220E+00  8.8549E-02  1.7350E+00   3.6564E-01
 2.7235E+00  8.8603E-02  1.7352E+00   3.6609E-01
 2.7249E+00  8.8657E-02  1.7353E+00   3.6654E-01
 2.7263E+00  8.8712E-02  1.7354E+00   3.6699E-01
 2.7278E+00  8.8766E-02  1.7355E+00   3.6743E-01
 2.7292E+00  8.8821E-02  1.7356E+00   3.6788E-01
 2.7306E+00  8.8876E-02  1.7357E+00   3.6833E-01
 2.7321E+00  8.8931E-02  1.7359E+00   3.6878E-01
 2.7335E+00  8.8987E-02  1.7360E+00   3.6923E-01
 2.7349E+00  8.9043E-02  1.7361E+00   3.6968E-01
 2.7364E+00  8.9099E-02  1.7362E+00   3.7013E-01
 2.7378E+00  8.9155E-02  1.7364E+00   3.7058E-01
 2.7393E+00  8.9212E-02  1.7365E+00   3.7103E-01
 2.7407E+00  8.9269E-02  1.7366E+00   3.7149E-01
 2.7422E+00  8.9326E-02  1.7368E+00   3.7193E-01
 2.7436E+00  8.9383E-02  1.7369E+00   3.7238E-01
 2.7451E+00  8.9441E-02  1.7370E+00   3.7284E-01
 2.7465E+00  8.9498E-02  1.7372E+00   3.7329E-01
 2.7480E+00  8.9556E-02  1.7373E+00   3.7374E-01
 2.7495E+00  8.9615E-02  1.7374E+00   3.7419E-01
 2.7509E+00  8.9673E-02  1.7376E+00   3.7464E-01
 2.7524E+00  8.9732E-02  1.7377E+00   3.7509E-01
 2.7538E+00  8.9791E-02  1.7379E+00   3.7555E-01
 2.7553E+00  8.9850E-02  1.7380E+00   3.7600E-01
 2.7568E+00  8.9910E-02  1.7382E+00   3.7645E-01
 2.7582E+00  8.9969E-02  1.7383E+00   3.7690E-01
 2.7597E+00  9.0029E-02  1.7385E+00   3.7736E-01
 2.7612E+00  9.0089E-02  1.7386E+00   3.7780E-01
 2.7626E+00  9.0150E-02  1.7388E+00   3.7826E-01
 2.7641E+00  9.0210E-02  1.7389E+00   3.7871E-01
 2.7656E+00  9.0271E-02  1.7391E+00   3.7916E-01
 2.7671E+00  9.0332E-02  1.7392E+00   3.7961E-01
 2.7685E+00  9.0393E-02  1.7394E+00   3.8007E-01
 2.7700E+00  9.0455E-02  1.7395E+00   3.8051E-01
 2.7715E+00  9.0517E-02  1.7397E+00   3.8097E-01
 2.7730E+00  9.0579E-02  1.7399E+00   3.8142E-01
 2.7745E+00  9.0641E-02  1.7400E+00   3.8187E-01
 2.7759E+00  9.0703E-02  1.7402E+00   3.8232E-01
 2.7774E+00  9.0766E-02  1.7404E+00   3.8277E-01
 2.7789E+00  9.0829E-02  1.7405E+00   3.8322E-01
 2.7804E+00  9.0891E-02  1.7407E+00   3.8367E-01
 2.7819E+00  9.0955E-02  1.7409E+00   3.8412E-01
 2.7834E+00  9.1018E-02  1.7411E+00   3.8457E-01
 2.7849E+00  9.1082E-02  1.7412E+00   3.8502E-01
 2.7864E+00  9.1146E-02  1.7414E+00   3.8547E-01
 2.7879E+00  9.1210E-02  1.7416E+00   3.8591E-01
 2.7894E+00  9.1274E-02  1.7418E+00   3.8636E-01
 2.7909E+00  9.1339E-02  1.7420E+00   3.8681E-01
 2.7924E+00  9.1403E-02  1.7422E+00   3.8725E-01
 2.7939E+00  9.1468E-02  1.7423E+00   3.8770E-01
 2.7954E+00  9.1533E-02  1.7425E+00   3.8815E-01
 2.7969E+00  9.1598E-02  1.7427E+00   3.8859E-01
 2.7984E+00  9.1664E-02  1.7429E+00   3.8904E-01
 2.7999E+00  9.1729E-02  1.7431E+00   3.8948E-01
 2.8014E+00  9.1795E-02  1.7433E+00   3.8993E-01
 2.8030E+00  9.1861E-02  1.7435E+00   3.9037E-01
 2.8045E+00  9.1927E-02  1.7437E+00   3.9081E-01
 2.8060E+00  9.1994E-02  1.7439E+00   3.9125E-01
 2.8075E+00  9.2060E-02  1.7441E+00   3.9170E-01
 2.8090E+00  9.2127E-02  1.7443E+00   3.9214E-01
 2.8106E+00  9.2193E-02  1.7445E+00   3.9258E-01
 2.8121E+00  9.2261E-02  1.7447E+00   3.9302E-01
 2.8136E+00  9.2327E-02  1.7449E+00   3.9345E-01
 2.8151E+00  9.2395E-02  1.7451E+00   3.9389E-01
 2.8167E+00  9.2462E-02  1.7453E+00   3.9433E-01
 2.8182E+00  9.2530E-02  1.7455E+00   3.9477E-01
 2.8197E+00  9.2597E-02  1.7457E+00   3.9520E-01
 2.8213E+00  9.2665E-02  1.7460E+00   3.9564E-01
 2.8228E+00  9.2733E-02  1.7462E+00   3.9607E-01
 2.8243E+00  9.2801E-02  1.7464E+00   3.9650E-01
 2.8259E+00  9.2870E-02  1.7466E+00   3.9693E-01
 2.8274E+00  9.2938E-02  1.7468E+00   3.9737E-01
 2.8290E+00  9.3007E-02  1.7470E+00   3.9780E-01
 2.8305E+00  9.3075E-02  1.7473E+00   3.9823E-01
 2.8320E+00  9.3143E-02  1.7475E+00   3.9865E-01
 2.8336E+00  9.3212E-02  1.7477E+00   3.9908E-01
 2.8351E+00  9.3281E-02  1.7479E+00   3.9951E-01
 2.8367E+00  9.3350E-02  1.7482E+00   3.9993E-01
 2.8382E+00  9.3420E-02  1.7484E+00   4.0036E-01
 2.8398E+00  9.3489E-02  1.7486E+00   4.0078E-01
 2.8413E+00  9.3558E-02  1.7489E+00   4.0120E-01
 2.8429E+00  9.3627E-02  1.7491E+00   4.0162E-01
 2.8445E+00  9.3696E-02  1.7493E+00   4.0204E-01
 2.8460E+00  9.3766E-02  1.7496E+00   4.0246E-01
 2.8476E+00  9.3836E-02  1.7498E+00   4.0288E-01
 2.8492E+00  9.3906E-02  1.7500E+00   4.0330E-01
 2.8507E+00  9.3975E-02  1.7503E+00   4.0371E-01
 2.8523E+00  9.4044E-02  1.7505E+00   4.0412E-01
 2.8539E+00  9.4114E-02  1.7508E+00   4.0453E-01
 2.8554E+00  9.4184E-02  1.7510E+00   4.0495E-01
 2.8570E+00  9.4254E-02  1.7512E+00   4.0536E-01
 2.8586E+00  9.4324E-02  1.7515E+00   4.0577E-01
 2.8602E+00  9.4394E-02  1.7517E+00   4.0617E-01
 2.8617E+00  9.4464E-02  1.7520E+00   4.0658E-01
 2.8633E+00  9.4534E-02  1.7522E+00   4.0698E-01
 2.8649E+00  9.4604E-02  1.7525E+00   4.0739E-01
 2.8665E+00  9.4674E-02  1.7527E+00   4.0779E-01
 2.8681E+00  9.4744E-02  1.7530E+00   4.0819E-01
 2.8697E+00  9.4814E-02  1.7532E+00   4.0859E-01
 2.8712E+00  9.4884E-02  1.7535E+00   4.0899E-01
 2.8728E+00  9.4954E-02  1.7537E+00   4.0939E-01
 2.8744E+00  9.5024E-02  1.7540E+00   4.0978E-01
 2.8760E+00  9.5094E-02  1.7542E+00   4.1018E-01
 2.8776E+00  9.5164E-02  1.7545E+00   4.1057E-01
 2.8792E+00  9.5234E-02  1.7547E+00   4.1096E-01
 2.8808E+00  9.5304E-02  1.7550E+00   4.1135E-01
 2.8824E+00  9.5374E-02  1.7553E+00   4.1174E-01
 2.8840E+00  9.5444E-02  1.7555E+00   4.1212E-01
 2.8856E+00  9.5514E-02  1.7558E+00   4.1251E-01
 2.8872E+00  9.5584E-02  1.7560E+00   4.1289E-01
 2.8889E+00  9.5654E-02  1.7563E+00   4.1327E-01
 2.8905E+00  9.5723E-02  1.7566E+00   4.1366E-01
 2.8921E+00  9.5792E-02  1.7568E+00   4.1403E-01
 2.8937E+00  9.5862E-02  1.7571E+00   4.1441E-01
 2.8953E+00  9.5932E-02  1.7573E+00   4.1479E-01
 2.8969E+00  9.6001E-02  1.7576E+00   4.1516E-01
 2.8985E+00  9.6071E-02  1.7579E+00   4.1553E-01
 2.9002E+00  9.6140E-02  1.7581E+00   4.1591E-01
 2.9018E+00  9.6209E-02  1.7584E+00   4.1627E-01
 2.9034E+00  9.6278E-02  1.7587E+00   4.1664E-01
 2.9050E+00  9.6347E-02  1.7589E+00   4.1701E-01
 2.9067E+00  9.6416E-02  1.7592E+00   4.1738E-01
 2.9083E+00  9.6485E-02  1.7595E+00   4.1774E-01
 2.9099E+00  9.6554E-02  1.7597E+00   4.1810E-01
 2.9116E+00  9.6623E-02  1.7600E+00   4.1847E-01
 2.9132E+00  9.6691E-02  1.7602E+00   4.1882E-01
 2.9148E+00  9.6759E-02  1.7605E+00   4.1918E-01
 2.9165E+00  9.6827E-02  1.7608E+00   4.1954E-01
 2.9181E+00  9.6896E-02  1.7610E+00   4.1989E-01
 2.9198E+00  9.6964E-02  1.7613E+00   4.2025E-01
 2.9214E+00  9.7032E-02  1.7616E+00   4.2060E-01
 2.9230E+00  9.7100E-02  1.7618E+00   4.2095E-01
 2.9247E+00  9.7167E-02  1.7621E+00   4.2130E-01
 2.9263E+00  9.7235E-02  1.7624E+00   4.2165E-01
 2.9280E+00  9.7302E-02  1.7626E+00   4.2199E-01
 2.9297E+00  9.7369E-02  1.7629E+00   4.2234E-01
 2.9313E+00  9.7436E-02  1.7632E+00   4.2268E-01
 2.9330E+00  9.7503E-02  1.7634E+00   4.2302E-01
 2.9346E+00  9.7570E-02  1.7637E+00   4.2336E-01
 2.9363E+00  9.7637E-02  1.7640E+00   4.2370E-01
 2.9379E+00  9.7703E-02  1.7642E+00   4.2404E-01
 2.9396E+00  9.7770E-02  1.7645E+00   4.2437E-01
 2.9413E+00  9.7836E-02  1.7648E+00   4.2471E-01
 2.9430E+00  9.7902E-02  1.7650E+00   4.2504E-01
 2.9446E+00  9.7967E-02  1.7653E+00   4.2537E-01
 2.9463E+00  9.8033E-02  1.7656E+00   4.2570E-01
 2.9480E+00  9.8099E-02  1.7658E+00   4.2603E-01
 2.9496E+00  9.8164E-02  1.7661E+00   4.2636E-01
 2.9513E+00  9.8229E-02  1.7663E+00   4.2669E-01
 2.9530E+00  9.8294E-02  1.7666E+00   4.2701E-01
 2.9547E+00  9.8359E-02  1.7669E+00   4.2734E-01
 2.9564E+00  9.8424E-02  1.7671E+00   4.2766E-01
 2.9581E+00  9.8488E-02  1.7674E+00   4.2798E-01
 2.9597E+00  9.8552E-02  1.7676E+00   4.2830E-01
 2.9614E+00  9.8617E-02  1.7679E+00   4.2862E-01
 2.9631E+00  9.8680E-02  1.7682E+00   4.2894E-01
 2.9648E+00  9.8744E-02  1.7684E+00   4.2926E-01
 2.9665E+00  9.8807E-02  1.7687E+00   4.2957E-01
 2.9682E+00  9.8871E-02  1.7689E+00   4.2988E-01
 2.9699E+00  9.8934E-02  1.7692E+00   4.3020E-01
 2.9716E+00  9.8997E-02  1.7694E+00   4.3051E-01
 2.9733E+00  9.9060E-02  1.7697E+00   4.3082E-01
 2.9750E+00  9.9123E-02  1.7699E+00   4.3113E-01
 2.9767E+00  9.9185E-02  1.7702E+00   4.3144E-01
 2.9784E+00  9.9247E-02  1.7705E+00   4.3175E-01
 2.9802E+00  9.9310E-02  1.7707E+00   4.3206E-01
 2.9819E+00  9.9371E-02  1.7710E+00   4.3236E-01
 2.9836E+00  9.9433E-02  1.7712E+00   4.3267E-01
 2.9853E+00  9.9495E-02  1.7715E+00   4.3298E-01
 2.9870E+00  9.9556E-02  1.7717E+00   4.3328E-01
 2.9887E+00  9.9617E-02  1.7719E+00   4.3358E-01
 2.9905E+00  9.9678E-02  1.7722E+00   4.3388E-01
 2.9922E+00  9.9739E-02  1.7724E+00   4.3418E-01
 2.9939E+00  9.9799E-02  1.7727E+00   4.3449E-01
 2.9956E+00  9.9860E-02  1.7729E+00   4.3479E-01
 2.9974E+00  9.9920E-02  1.7732E+00   4.3509E-01
 2.9991E+00  9.9980E-02  1.7734E+00   4.3538E-01
 3.0008E+00  1.0004E-01  1.7736E+00   4.3568E-01
 3.0026E+00  1.0010E-01  1.7739E+00   4.3598E-01
 3.0043E+00  1.0016E-01  1.7741E+00   4.3627E-01
 3.0061E+00  1.0022E-01  1.7744E+00   4.3657E-01
 3.0078E+00  1.0028E-01  1.7746E+00   4.3687E-01
 3.0096E+00  1.0034E-01  1.7748E+00   4.3716E-01
 3.0113E+00  1.0040E-01  1.7751E+00   4.3745E-01
 3.0131E+00  1.0045E-01  1.7753E+00   4.3775E-01
 3.0148E+00  1.0051E-01  1.7755E+00   4.3804E-01
 3.0166E+00  1.0057E-01  1.7758E+00   4.3833E-01
 3.0183E+00  1.0063E-01  1.7760E+00   4.3863E-01
 3.0201E+00  1.0069E-01  1.7762E+00   4.3892E-01
 3.0218E+00  1.0075E-01  1.7765E+00   4.3921E-01
 3.0236E+00  1.0080E-01  1.7767E+00   4.3950E-01
 3.0254E+00  1.0086E-01  1.7769E+00   4.3979E-01
 3.0271E+00  1.0092E-01  1.7771E+00   4.4008E-01
 3.0289E+00  1.0098E-01  1.7774E+00   4.4037E-01
 3.0307E+00  1.0103E-01  1.7776E+00   4.4066E-01
 3.0324E+00  1.0109E-01  1.7778E+00   4.4095E-01
 3.0342E+00  1.0115E-01  1.7780E+00   4.4124E-01
 3.0360E+00  1.0120E-01  1.7782E+00   4.4153E-01
 3.0378E+00  1.0126E-01  1.7785E+00   4.4182E-01
 3.0396E+00  1.0132E-01  1.7787E+00   4.4211E-01
 3.0413E+00  1.0137E-01  1.7789E+00   4.4239E-01
 3.0431E+00  1.0143E-01  1.7791E+00   4.4268E-01
 3.0449E+00  1.0148E-01  1.7793E+00   4.4297E-01
 3.0467E+00  1.0154E-01  1.7795E+00   4.4326E-01
 3.0485E+00  1.0160E-01  1.7798E+00   4.4355E-01
 3.0503E+00  1.0165E-01  1.7800E+00   4.4384E-01
 3.0521E+00  1.0171E-01  1.7802E+00   4.4413E-01
 3.0539E+00  1.0176E-01  1.7804E+00   4.4442E-01
 3.0557E+00  1.0182E-01  1.7806E+00   4.4470E-01
 3.0575E+00  1.0187E-01  1.7808E+00   4.4499E-01
 3.0593E+00  1.0193E-01  1.7810E+00   4.4528E-01
 3.0611E+00  1.0198E-01  1.7812E+00   4.4557E-01
 3.0629E+00  1.0204E-01  1.7814E+00   4.4586E-01
 3.0647E+00  1.0209E-01  1.7816E+00   4.4615E-01
 3.0665E+00  1.0215E-01  1.7818E+00   4.4644E-01
 3.0683E+00  1.0220E-01  1.7820E+00   4.4673E-01
 3.0701E+00  1.0226E-01  1.7822E+00   4.4702E-01
 3.0720E+00  1.0231E-01  1.7824E+00   4.4731E-01
 3.0738E+00  1.0236E-01  1.7826E+00   4.4760E-01
 3.0756E+00  1.0242E-01  1.7828E+00   4.4789E-01
 3.0774E+00  1.0247E-01  1.7830E+00   4.4818E-01
 3.0793E+00  1.0253E-01  1.7832E+00   4.4847E-01
 3.0811E+00  1.0258E-01  1.7834E+00   4.4877E-01
 3.0829E+00  1.0263E-01  1.7836E+00   4.4906E-01
 3.0848E+00  1.0269E-01  1.7838E+00   4.4935E-01
 3.0866E+00  1.0274E-01  1.7840E+00   4.4964E-01
