Darapskite optical constants from Roush, J. Geophys.
Res., 101, 2215-2224, 1996.  Range of validity is given
as 5-17 micrometers
  wavelength  calc. ref.  real index  imag. index
 2.5002E+00  2.6563E-02  1.3876E+00   5.8518E-05
 2.5014E+00  2.6562E-02  1.3875E+00   5.8616E-05
 2.5026E+00  2.6560E-02  1.3875E+00   5.8714E-05
 2.5038E+00  2.6559E-02  1.3875E+00   5.8813E-05
 2.5051E+00  2.6558E-02  1.3875E+00   5.8911E-05
 2.5063E+00  2.6557E-02  1.3875E+00   5.9010E-05
 2.5075E+00  2.6555E-02  1.3875E+00   5.9109E-05
 2.5087E+00  2.6554E-02  1.3875E+00   5.9208E-05
 2.5099E+00  2.6553E-02  1.3875E+00   5.9308E-05
 2.5111E+00  2.6552E-02  1.3875E+00   5.9407E-05
 2.5123E+00  2.6551E-02  1.3875E+00   5.9508E-05
 2.5136E+00  2.6549E-02  1.3874E+00   5.9608E-05
 2.5148E+00  2.6548E-02  1.3874E+00   5.9709E-05
 2.5160E+00  2.6547E-02  1.3874E+00   5.9809E-05
 2.5172E+00  2.6546E-02  1.3874E+00   5.9910E-05
 2.5184E+00  2.6544E-02  1.3874E+00   6.0011E-05
 2.5197E+00  2.6543E-02  1.3874E+00   6.0113E-05
 2.5209E+00  2.6542E-02  1.3874E+00   6.0214E-05
 2.5221E+00  2.6541E-02  1.3874E+00   6.0316E-05
 2.5234E+00  2.6539E-02  1.3874E+00   6.0419E-05
 2.5246E+00  2.6538E-02  1.3873E+00   6.0520E-05
 2.5258E+00  2.6537E-02  1.3873E+00   6.0623E-05
 2.5270E+00  2.6536E-02  1.3873E+00   6.0726E-05
 2.5283E+00  2.6534E-02  1.3873E+00   6.0829E-05
 2.5295E+00  2.6533E-02  1.3873E+00   6.0932E-05
 2.5307E+00  2.6532E-02  1.3873E+00   6.1036E-05
 2.5320E+00  2.6531E-02  1.3873E+00   6.1140E-05
 2.5332E+00  2.6529E-02  1.3873E+00   6.1243E-05
 2.5344E+00  2.6528E-02  1.3873E+00   6.1347E-05
 2.5357E+00  2.6527E-02  1.3872E+00   6.1452E-05
 2.5369E+00  2.6526E-02  1.3872E+00   6.1557E-05
 2.5382E+00  2.6524E-02  1.3872E+00   6.1662E-05
 2.5394E+00  2.6523E-02  1.3872E+00   6.1767E-05
 2.5406E+00  2.6522E-02  1.3872E+00   6.1873E-05
 2.5419E+00  2.6520E-02  1.3872E+00   6.1979E-05
 2.5431E+00  2.6519E-02  1.3872E+00   6.2084E-05
 2.5444E+00  2.6518E-02  1.3872E+00   6.2191E-05
 2.5456E+00  2.6517E-02  1.3872E+00   6.2297E-05
 2.5469E+00  2.6515E-02  1.3871E+00   6.2404E-05
 2.5481E+00  2.6514E-02  1.3871E+00   6.2511E-05
 2.5494E+00  2.6513E-02  1.3871E+00   6.2618E-05
 2.5507E+00  2.6511E-02  1.3871E+00   6.2726E-05
 2.5519E+00  2.6510E-02  1.3871E+00   6.2834E-05
 2.5532E+00  2.6509E-02  1.3871E+00   6.2941E-05
 2.5544E+00  2.6508E-02  1.3871E+00   6.3050E-05
 2.5557E+00  2.6506E-02  1.3871E+00   6.3159E-05
 2.5569E+00  2.6505E-02  1.3871E+00   6.3267E-05
 2.5582E+00  2.6504E-02  1.3870E+00   6.3376E-05
 2.5595E+00  2.6502E-02  1.3870E+00   6.3485E-05
 2.5607E+00  2.6501E-02  1.3870E+00   6.3595E-05
 2.5620E+00  2.6500E-02  1.3870E+00   6.3705E-05
 2.5633E+00  2.6498E-02  1.3870E+00   6.3815E-05
 2.5645E+00  2.6497E-02  1.3870E+00   6.3925E-05
 2.5658E+00  2.6496E-02  1.3870E+00   6.4036E-05
 2.5671E+00  2.6494E-02  1.3870E+00   6.4146E-05
 2.5683E+00  2.6493E-02  1.3870E+00   6.4258E-05
 2.5696E+00  2.6492E-02  1.3869E+00   6.4370E-05
 2.5709E+00  2.6490E-02  1.3869E+00   6.4482E-05
 2.5722E+00  2.6489E-02  1.3869E+00   6.4593E-05
 2.5734E+00  2.6488E-02  1.3869E+00   6.4705E-05
 2.5747E+00  2.6486E-02  1.3869E+00   6.4818E-05
 2.5760E+00  2.6485E-02  1.3869E+00   6.4930E-05
 2.5773E+00  2.6484E-02  1.3869E+00   6.5043E-05
 2.5786E+00  2.6482E-02  1.3869E+00   6.5157E-05
 2.5798E+00  2.6481E-02  1.3868E+00   6.5271E-05
 2.5811E+00  2.6480E-02  1.3868E+00   6.5384E-05
 2.5824E+00  2.6478E-02  1.3868E+00   6.5498E-05
 2.5837E+00  2.6477E-02  1.3868E+00   6.5613E-05
 2.5850E+00  2.6476E-02  1.3868E+00   6.5727E-05
 2.5863E+00  2.6474E-02  1.3868E+00   6.5842E-05
 2.5876E+00  2.6473E-02  1.3868E+00   6.5958E-05
 2.5889E+00  2.6472E-02  1.3868E+00   6.6074E-05
 2.5901E+00  2.6470E-02  1.3868E+00   6.6188E-05
 2.5914E+00  2.6469E-02  1.3867E+00   6.6305E-05
 2.5927E+00  2.6468E-02  1.3867E+00   6.6422E-05
 2.5940E+00  2.6466E-02  1.3867E+00   6.6538E-05
 2.5953E+00  2.6465E-02  1.3867E+00   6.6655E-05
 2.5966E+00  2.6463E-02  1.3867E+00   6.6772E-05
 2.5979E+00  2.6462E-02  1.3867E+00   6.6889E-05
 2.5992E+00  2.6461E-02  1.3867E+00   6.7007E-05
 2.6005E+00  2.6459E-02  1.3867E+00   6.7126E-05
 2.6018E+00  2.6458E-02  1.3866E+00   6.7244E-05
 2.6031E+00  2.6456E-02  1.3866E+00   6.7363E-05
 2.6045E+00  2.6455E-02  1.3866E+00   6.7482E-05
 2.6058E+00  2.6454E-02  1.3866E+00   6.7601E-05
 2.6071E+00  2.6452E-02  1.3866E+00   6.7720E-05
 2.6084E+00  2.6451E-02  1.3866E+00   6.7839E-05
 2.6097E+00  2.6450E-02  1.3866E+00   6.7960E-05
 2.6110E+00  2.6448E-02  1.3866E+00   6.8080E-05
 2.6123E+00  2.6447E-02  1.3865E+00   6.8201E-05
 2.6136E+00  2.6445E-02  1.3865E+00   6.8322E-05
 2.6150E+00  2.6444E-02  1.3865E+00   6.8444E-05
 2.6163E+00  2.6442E-02  1.3865E+00   6.8564E-05
 2.6176E+00  2.6441E-02  1.3865E+00   6.8686E-05
 2.6189E+00  2.6440E-02  1.3865E+00   6.8809E-05
 2.6202E+00  2.6438E-02  1.3865E+00   6.8931E-05
 2.6216E+00  2.6437E-02  1.3865E+00   6.9055E-05
 2.6229E+00  2.6435E-02  1.3864E+00   6.9177E-05
 2.6242E+00  2.6434E-02  1.3864E+00   6.9300E-05
 2.6256E+00  2.6433E-02  1.3864E+00   6.9424E-05
 2.6269E+00  2.6431E-02  1.3864E+00   6.9548E-05
 2.6282E+00  2.6430E-02  1.3864E+00   6.9673E-05
 2.6296E+00  2.6428E-02  1.3864E+00   6.9797E-05
 2.6309E+00  2.6427E-02  1.3864E+00   6.9922E-05
 2.6322E+00  2.6425E-02  1.3864E+00   7.0047E-05
 2.6336E+00  2.6424E-02  1.3863E+00   7.0172E-05
 2.6349E+00  2.6422E-02  1.3863E+00   7.0298E-05
 2.6362E+00  2.6421E-02  1.3863E+00   7.0424E-05
 2.6376E+00  2.6420E-02  1.3863E+00   7.0551E-05
 2.6389E+00  2.6418E-02  1.3863E+00   7.0678E-05
 2.6403E+00  2.6417E-02  1.3863E+00   7.0805E-05
 2.6416E+00  2.6415E-02  1.3863E+00   7.0932E-05
 2.6429E+00  2.6414E-02  1.3863E+00   7.1060E-05
 2.6443E+00  2.6412E-02  1.3862E+00   7.1188E-05
 2.6456E+00  2.6411E-02  1.3862E+00   7.1316E-05
 2.6470E+00  2.6409E-02  1.3862E+00   7.1445E-05
 2.6484E+00  2.6408E-02  1.3862E+00   7.1574E-05
 2.6497E+00  2.6406E-02  1.3862E+00   7.1704E-05
 2.6511E+00  2.6405E-02  1.3862E+00   7.1833E-05
 2.6524E+00  2.6403E-02  1.3862E+00   7.1962E-05
 2.6538E+00  2.6402E-02  1.3862E+00   7.2093E-05
 2.6551E+00  2.6400E-02  1.3861E+00   7.2224E-05
 2.6565E+00  2.6399E-02  1.3861E+00   7.2355E-05
 2.6579E+00  2.6397E-02  1.3861E+00   7.2487E-05
 2.6592E+00  2.6396E-02  1.3861E+00   7.2617E-05
 2.6606E+00  2.6395E-02  1.3861E+00   7.2749E-05
 2.6620E+00  2.6393E-02  1.3861E+00   7.2882E-05
 2.6633E+00  2.6392E-02  1.3861E+00   7.3014E-05
 2.6647E+00  2.6390E-02  1.3860E+00   7.3147E-05
 2.6661E+00  2.6388E-02  1.3860E+00   7.3281E-05
 2.6674E+00  2.6387E-02  1.3860E+00   7.3415E-05
 2.6688E+00  2.6385E-02  1.3860E+00   7.3547E-05
 2.6702E+00  2.6384E-02  1.3860E+00   7.3682E-05
 2.6715E+00  2.6382E-02  1.3860E+00   7.3817E-05
 2.6729E+00  2.6381E-02  1.3860E+00   7.3952E-05
 2.6743E+00  2.6379E-02  1.3860E+00   7.4087E-05
 2.6757E+00  2.6378E-02  1.3859E+00   7.4224E-05
 2.6771E+00  2.6376E-02  1.3859E+00   7.4359E-05
 2.6784E+00  2.6375E-02  1.3859E+00   7.4495E-05
 2.6798E+00  2.6373E-02  1.3859E+00   7.4632E-05
 2.6812E+00  2.6372E-02  1.3859E+00   7.4769E-05
 2.6826E+00  2.6370E-02  1.3859E+00   7.4907E-05
 2.6840E+00  2.6369E-02  1.3859E+00   7.5044E-05
 2.6854E+00  2.6367E-02  1.3858E+00   7.5183E-05
 2.6868E+00  2.6366E-02  1.3858E+00   7.5320E-05
 2.6882E+00  2.6364E-02  1.3858E+00   7.5459E-05
 2.6896E+00  2.6362E-02  1.3858E+00   7.5598E-05
 2.6910E+00  2.6361E-02  1.3858E+00   7.5738E-05
 2.6924E+00  2.6359E-02  1.3858E+00   7.5878E-05
 2.6938E+00  2.6358E-02  1.3858E+00   7.6019E-05
 2.6951E+00  2.6356E-02  1.3858E+00   7.6158E-05
 2.6965E+00  2.6355E-02  1.3857E+00   7.6299E-05
 2.6980E+00  2.6353E-02  1.3857E+00   7.6441E-05
 2.6994E+00  2.6352E-02  1.3857E+00   7.6582E-05
 2.7008E+00  2.6350E-02  1.3857E+00   7.6725E-05
 2.7022E+00  2.6348E-02  1.3857E+00   7.6867E-05
 2.7036E+00  2.6347E-02  1.3857E+00   7.7010E-05
 2.7050E+00  2.6345E-02  1.3857E+00   7.7152E-05
 2.7064E+00  2.6344E-02  1.3856E+00   7.7296E-05
 2.7078E+00  2.6342E-02  1.3856E+00   7.7440E-05
 2.7092E+00  2.6340E-02  1.3856E+00   7.7584E-05
 2.7106E+00  2.6339E-02  1.3856E+00   7.7729E-05
 2.7121E+00  2.6337E-02  1.3856E+00   7.7874E-05
 2.7135E+00  2.6336E-02  1.3856E+00   7.8018E-05
 2.7149E+00  2.6334E-02  1.3856E+00   7.8165E-05
 2.7163E+00  2.6332E-02  1.3855E+00   7.8311E-05
 2.7178E+00  2.6331E-02  1.3855E+00   7.8457E-05
 2.7192E+00  2.6329E-02  1.3855E+00   7.8604E-05
 2.7206E+00  2.6328E-02  1.3855E+00   7.8752E-05
 2.7220E+00  2.6326E-02  1.3855E+00   7.8900E-05
 2.7235E+00  2.6324E-02  1.3855E+00   7.9047E-05
 2.7249E+00  2.6323E-02  1.3855E+00   7.9195E-05
 2.7263E+00  2.6321E-02  1.3854E+00   7.9345E-05
 2.7278E+00  2.6320E-02  1.3854E+00   7.9493E-05
 2.7292E+00  2.6318E-02  1.3854E+00   7.9643E-05
 2.7306E+00  2.6316E-02  1.3854E+00   7.9794E-05
 2.7321E+00  2.6315E-02  1.3854E+00   7.9943E-05
 2.7335E+00  2.6313E-02  1.3854E+00   8.0094E-05
 2.7349E+00  2.6311E-02  1.3854E+00   8.0245E-05
 2.7364E+00  2.6310E-02  1.3853E+00   8.0397E-05
 2.7378E+00  2.6308E-02  1.3853E+00   8.0548E-05
 2.7393E+00  2.6306E-02  1.3853E+00   8.0701E-05
 2.7407E+00  2.6305E-02  1.3853E+00   8.0854E-05
 2.7422E+00  2.6303E-02  1.3853E+00   8.1006E-05
 2.7436E+00  2.6301E-02  1.3853E+00   8.1159E-05
 2.7451E+00  2.6300E-02  1.3853E+00   8.1314E-05
 2.7465E+00  2.6298E-02  1.3852E+00   8.1468E-05
 2.7480E+00  2.6296E-02  1.3852E+00   8.1623E-05
 2.7495E+00  2.6295E-02  1.3852E+00   8.1779E-05
 2.7509E+00  2.6293E-02  1.3852E+00   8.1933E-05
 2.7524E+00  2.6291E-02  1.3852E+00   8.2089E-05
 2.7538E+00  2.6290E-02  1.3852E+00   8.2245E-05
 2.7553E+00  2.6288E-02  1.3852E+00   8.2403E-05
 2.7568E+00  2.6286E-02  1.3851E+00   8.2561E-05
 2.7582E+00  2.6285E-02  1.3851E+00   8.2718E-05
 2.7597E+00  2.6283E-02  1.3851E+00   8.2876E-05
 2.7612E+00  2.6281E-02  1.3851E+00   8.3033E-05
 2.7626E+00  2.6279E-02  1.3851E+00   8.3193E-05
 2.7641E+00  2.6278E-02  1.3851E+00   8.3352E-05
 2.7656E+00  2.6276E-02  1.3851E+00   8.3512E-05
 2.7671E+00  2.6274E-02  1.3850E+00   8.3672E-05
 2.7685E+00  2.6273E-02  1.3850E+00   8.3833E-05
 2.7700E+00  2.6271E-02  1.3850E+00   8.3993E-05
 2.7715E+00  2.6269E-02  1.3850E+00   8.4155E-05
 2.7730E+00  2.6267E-02  1.3850E+00   8.4317E-05
 2.7745E+00  2.6266E-02  1.3850E+00   8.4479E-05
 2.7759E+00  2.6264E-02  1.3849E+00   8.4642E-05
 2.7774E+00  2.6262E-02  1.3849E+00   8.4805E-05
 2.7789E+00  2.6261E-02  1.3849E+00   8.4969E-05
 2.7804E+00  2.6259E-02  1.3849E+00   8.5132E-05
 2.7819E+00  2.6257E-02  1.3849E+00   8.5296E-05
 2.7834E+00  2.6255E-02  1.3849E+00   8.5462E-05
 2.7849E+00  2.6254E-02  1.3849E+00   8.5627E-05
 2.7864E+00  2.6252E-02  1.3848E+00   8.5793E-05
 2.7879E+00  2.6250E-02  1.3848E+00   8.5959E-05
 2.7894E+00  2.6248E-02  1.3848E+00   8.6125E-05
 2.7909E+00  2.6247E-02  1.3848E+00   8.6293E-05
 2.7924E+00  2.6245E-02  1.3848E+00   8.6460E-05
 2.7939E+00  2.6243E-02  1.3848E+00   8.6629E-05
 2.7954E+00  2.6241E-02  1.3847E+00   8.6797E-05
 2.7969E+00  2.6239E-02  1.3847E+00   8.6966E-05
 2.7984E+00  2.6238E-02  1.3847E+00   8.7136E-05
 2.7999E+00  2.6236E-02  1.3847E+00   8.7305E-05
 2.8014E+00  2.6234E-02  1.3847E+00   8.7475E-05
 2.8030E+00  2.6232E-02  1.3847E+00   8.7647E-05
 2.8045E+00  2.6230E-02  1.3847E+00   8.7817E-05
 2.8060E+00  2.6229E-02  1.3846E+00   8.7989E-05
 2.8075E+00  2.6227E-02  1.3846E+00   8.8162E-05
 2.8090E+00  2.6225E-02  1.3846E+00   8.8334E-05
 2.8106E+00  2.6223E-02  1.3846E+00   8.8507E-05
 2.8121E+00  2.6221E-02  1.3846E+00   8.8681E-05
 2.8136E+00  2.6220E-02  1.3846E+00   8.8855E-05
 2.8151E+00  2.6218E-02  1.3845E+00   8.9029E-05
 2.8167E+00  2.6216E-02  1.3845E+00   8.9204E-05
 2.8182E+00  2.6214E-02  1.3845E+00   8.9381E-05
 2.8197E+00  2.6212E-02  1.3845E+00   8.9556E-05
 2.8213E+00  2.6211E-02  1.3845E+00   8.9733E-05
 2.8228E+00  2.6209E-02  1.3845E+00   8.9909E-05
 2.8243E+00  2.6207E-02  1.3844E+00   9.0087E-05
 2.8259E+00  2.6205E-02  1.3844E+00   9.0265E-05
 2.8274E+00  2.6203E-02  1.3844E+00   9.0443E-05
 2.8290E+00  2.6201E-02  1.3844E+00   9.0623E-05
 2.8305E+00  2.6199E-02  1.3844E+00   9.0802E-05
 2.8320E+00  2.6198E-02  1.3844E+00   9.0981E-05
 2.8336E+00  2.6196E-02  1.3843E+00   9.1161E-05
 2.8351E+00  2.6194E-02  1.3843E+00   9.1342E-05
 2.8367E+00  2.6192E-02  1.3843E+00   9.1524E-05
 2.8382E+00  2.6190E-02  1.3843E+00   9.1706E-05
 2.8398E+00  2.6188E-02  1.3843E+00   9.1888E-05
 2.8413E+00  2.6186E-02  1.3843E+00   9.2070E-05
 2.8429E+00  2.6184E-02  1.3842E+00   9.2254E-05
 2.8445E+00  2.6183E-02  1.3842E+00   9.2438E-05
 2.8460E+00  2.6181E-02  1.3842E+00   9.2623E-05
 2.8476E+00  2.6179E-02  1.3842E+00   9.2808E-05
 2.8492E+00  2.6177E-02  1.3842E+00   9.2994E-05
 2.8507E+00  2.6175E-02  1.3842E+00   9.3178E-05
 2.8523E+00  2.6173E-02  1.3841E+00   9.3365E-05
 2.8539E+00  2.6171E-02  1.3841E+00   9.3552E-05
 2.8554E+00  2.6169E-02  1.3841E+00   9.3740E-05
 2.8570E+00  2.6167E-02  1.3841E+00   9.3928E-05
 2.8586E+00  2.6165E-02  1.3841E+00   9.4117E-05
 2.8602E+00  2.6164E-02  1.3841E+00   9.4305E-05
 2.8617E+00  2.6162E-02  1.3840E+00   9.4495E-05
 2.8633E+00  2.6160E-02  1.3840E+00   9.4685E-05
 2.8649E+00  2.6158E-02  1.3840E+00   9.4876E-05
 2.8665E+00  2.6156E-02  1.3840E+00   9.5068E-05
 2.8681E+00  2.6154E-02  1.3840E+00   9.5259E-05
 2.8697E+00  2.6152E-02  1.3840E+00   9.5451E-05
 2.8712E+00  2.6150E-02  1.3839E+00   9.5643E-05
 2.8728E+00  2.6148E-02  1.3839E+00   9.5838E-05
 2.8744E+00  2.6146E-02  1.3839E+00   9.6031E-05
 2.8760E+00  2.6144E-02  1.3839E+00   9.6226E-05
 2.8776E+00  2.6142E-02  1.3839E+00   9.6421E-05
 2.8792E+00  2.6140E-02  1.3839E+00   9.6616E-05
 2.8808E+00  2.6138E-02  1.3838E+00   9.6813E-05
 2.8824E+00  2.6136E-02  1.3838E+00   9.7009E-05
 2.8840E+00  2.6134E-02  1.3838E+00   9.7206E-05
 2.8856E+00  2.6132E-02  1.3838E+00   9.7404E-05
 2.8872E+00  2.6130E-02  1.3838E+00   9.7603E-05
 2.8889E+00  2.6128E-02  1.3838E+00   9.7802E-05
 2.8905E+00  2.6126E-02  1.3837E+00   9.8001E-05
 2.8921E+00  2.6124E-02  1.3837E+00   9.8200E-05
 2.8937E+00  2.6122E-02  1.3837E+00   9.8401E-05
 2.8953E+00  2.6120E-02  1.3837E+00   9.8602E-05
 2.8969E+00  2.6118E-02  1.3837E+00   9.8804E-05
 2.8985E+00  2.6116E-02  1.3836E+00   9.9006E-05
 2.9002E+00  2.6114E-02  1.3836E+00   9.9210E-05
 2.9018E+00  2.6112E-02  1.3836E+00   9.9412E-05
 2.9034E+00  2.6110E-02  1.3836E+00   9.9617E-05
 2.9050E+00  2.6108E-02  1.3836E+00   9.9822E-05
 2.9067E+00  2.6106E-02  1.3836E+00   1.0003E-04
 2.9083E+00  2.6104E-02  1.3835E+00   1.0023E-04
 2.9099E+00  2.6102E-02  1.3835E+00   1.0044E-04
 2.9116E+00  2.6100E-02  1.3835E+00   1.0065E-04
 2.9132E+00  2.6098E-02  1.3835E+00   1.0085E-04
 2.9148E+00  2.6096E-02  1.3835E+00   1.0106E-04
 2.9165E+00  2.6094E-02  1.3835E+00   1.0127E-04
 2.9181E+00  2.6092E-02  1.3834E+00   1.0148E-04
 2.9198E+00  2.6090E-02  1.3834E+00   1.0169E-04
 2.9214E+00  2.6088E-02  1.3834E+00   1.0190E-04
 2.9230E+00  2.6085E-02  1.3834E+00   1.0211E-04
 2.9247E+00  2.6083E-02  1.3834E+00   1.0232E-04
 2.9263E+00  2.6081E-02  1.3833E+00   1.0254E-04
 2.9280E+00  2.6079E-02  1.3833E+00   1.0275E-04
 2.9297E+00  2.6077E-02  1.3833E+00   1.0296E-04
 2.9313E+00  2.6075E-02  1.3833E+00   1.0318E-04
 2.9330E+00  2.6073E-02  1.3833E+00   1.0339E-04
 2.9346E+00  2.6071E-02  1.3832E+00   1.0361E-04
 2.9363E+00  2.6069E-02  1.3832E+00   1.0382E-04
 2.9379E+00  2.6067E-02  1.3832E+00   1.0404E-04
 2.9396E+00  2.6064E-02  1.3832E+00   1.0426E-04
 2.9413E+00  2.6062E-02  1.3832E+00   1.0448E-04
 2.9430E+00  2.6060E-02  1.3832E+00   1.0469E-04
 2.9446E+00  2.6058E-02  1.3831E+00   1.0491E-04
 2.9463E+00  2.6056E-02  1.3831E+00   1.0513E-04
 2.9480E+00  2.6054E-02  1.3831E+00   1.0535E-04
 2.9496E+00  2.6052E-02  1.3831E+00   1.0558E-04
 2.9513E+00  2.6050E-02  1.3831E+00   1.0580E-04
 2.9530E+00  2.6047E-02  1.3830E+00   1.0602E-04
 2.9547E+00  2.6045E-02  1.3830E+00   1.0624E-04
 2.9564E+00  2.6043E-02  1.3830E+00   1.0647E-04
 2.9581E+00  2.6041E-02  1.3830E+00   1.0669E-04
 2.9597E+00  2.6039E-02  1.3830E+00   1.0692E-04
 2.9614E+00  2.6037E-02  1.3829E+00   1.0714E-04
 2.9631E+00  2.6034E-02  1.3829E+00   1.0737E-04
 2.9648E+00  2.6032E-02  1.3829E+00   1.0760E-04
 2.9665E+00  2.6030E-02  1.3829E+00   1.0782E-04
 2.9682E+00  2.6028E-02  1.3829E+00   1.0805E-04
 2.9699E+00  2.6026E-02  1.3829E+00   1.0828E-04
 2.9716E+00  2.6023E-02  1.3828E+00   1.0851E-04
 2.9733E+00  2.6021E-02  1.3828E+00   1.0874E-04
 2.9750E+00  2.6019E-02  1.3828E+00   1.0897E-04
 2.9767E+00  2.6017E-02  1.3828E+00   1.0921E-04
 2.9784E+00  2.6015E-02  1.3828E+00   1.0944E-04
 2.9802E+00  2.6012E-02  1.3827E+00   1.0967E-04
 2.9819E+00  2.6010E-02  1.3827E+00   1.0991E-04
 2.9836E+00  2.6008E-02  1.3827E+00   1.1014E-04
 2.9853E+00  2.6006E-02  1.3827E+00   1.1038E-04
 2.9870E+00  2.6003E-02  1.3827E+00   1.1061E-04
 2.9887E+00  2.6001E-02  1.3826E+00   1.1085E-04
 2.9905E+00  2.5999E-02  1.3826E+00   1.1109E-04
 2.9922E+00  2.5997E-02  1.3826E+00   1.1132E-04
 2.9939E+00  2.5994E-02  1.3826E+00   1.1156E-04
 2.9956E+00  2.5992E-02  1.3826E+00   1.1180E-04
 2.9974E+00  2.5990E-02  1.3825E+00   1.1204E-04
 2.9991E+00  2.5987E-02  1.3825E+00   1.1228E-04
 3.0008E+00  2.5985E-02  1.3825E+00   1.1253E-04
 3.0026E+00  2.5983E-02  1.3825E+00   1.1277E-04
 3.0043E+00  2.5981E-02  1.3825E+00   1.1301E-04
 3.0061E+00  2.5978E-02  1.3824E+00   1.1326E-04
 3.0078E+00  2.5976E-02  1.3824E+00   1.1350E-04
 3.0096E+00  2.5974E-02  1.3824E+00   1.1375E-04
 3.0113E+00  2.5971E-02  1.3824E+00   1.1399E-04
 3.0131E+00  2.5969E-02  1.3824E+00   1.1424E-04
 3.0148E+00  2.5967E-02  1.3823E+00   1.1449E-04
 3.0166E+00  2.5964E-02  1.3823E+00   1.1474E-04
 3.0183E+00  2.5962E-02  1.3823E+00   1.1499E-04
 3.0201E+00  2.5960E-02  1.3823E+00   1.1524E-04
 3.0218E+00  2.5957E-02  1.3823E+00   1.1549E-04
 3.0236E+00  2.5955E-02  1.3822E+00   1.1574E-04
 3.0254E+00  2.5953E-02  1.3822E+00   1.1599E-04
 3.0271E+00  2.5950E-02  1.3822E+00   1.1624E-04
 3.0289E+00  2.5948E-02  1.3822E+00   1.1650E-04
 3.0307E+00  2.5946E-02  1.3821E+00   1.1675E-04
 3.0324E+00  2.5943E-02  1.3821E+00   1.1701E-04
 3.0342E+00  2.5941E-02  1.3821E+00   1.1726E-04
 3.0360E+00  2.5939E-02  1.3821E+00   1.1752E-04
 3.0378E+00  2.5936E-02  1.3821E+00   1.1778E-04
 3.0396E+00  2.5934E-02  1.3820E+00   1.1804E-04
 3.0413E+00  2.5931E-02  1.3820E+00   1.1829E-04
 3.0431E+00  2.5929E-02  1.3820E+00   1.1856E-04
 3.0449E+00  2.5927E-02  1.3820E+00   1.1882E-04
 3.0467E+00  2.5924E-02  1.3820E+00   1.1908E-04
 3.0485E+00  2.5922E-02  1.3819E+00   1.1934E-04
 3.0503E+00  2.5919E-02  1.3819E+00   1.1960E-04
 3.0521E+00  2.5917E-02  1.3819E+00   1.1987E-04
 3.0539E+00  2.5914E-02  1.3819E+00   1.2013E-04
 3.0557E+00  2.5912E-02  1.3819E+00   1.2040E-04
 3.0575E+00  2.5910E-02  1.3818E+00   1.2067E-04
 3.0593E+00  2.5907E-02  1.3818E+00   1.2093E-04
 3.0611E+00  2.5905E-02  1.3818E+00   1.2120E-04
 3.0629E+00  2.5902E-02  1.3818E+00   1.2147E-04
 3.0647E+00  2.5900E-02  1.3817E+00   1.2174E-04
 3.0665E+00  2.5897E-02  1.3817E+00   1.2201E-04
 3.0683E+00  2.5895E-02  1.3817E+00   1.2228E-04
 3.0701E+00  2.5892E-02  1.3817E+00   1.2255E-04
 3.0720E+00  2.5890E-02  1.3817E+00   1.2283E-04
 3.0738E+00  2.5887E-02  1.3816E+00   1.2310E-04
 3.0756E+00  2.5885E-02  1.3816E+00   1.2338E-04
 3.0774E+00  2.5882E-02  1.3816E+00   1.2365E-04
 3.0793E+00  2.5880E-02  1.3816E+00   1.2393E-04
 3.0811E+00  2.5877E-02  1.3815E+00   1.2421E-04
 3.0829E+00  2.5875E-02  1.3815E+00   1.2449E-04
 3.0848E+00  2.5872E-02  1.3815E+00   1.2477E-04
 3.0866E+00  2.5870E-02  1.3815E+00   1.2505E-04
 3.0884E+00  2.5867E-02  1.3815E+00   1.2533E-04
